Time [s]	Voltage power source [V]	Voltage current sensor [V]
 -1.00	0.0170	2.5077
 -1.00	0.0133	2.5077
 -1.00	0.0133	2.5078
 -1.00	0.0122	2.5076
 -1.00	0.0173	2.5076
 -1.00	0.0150	2.5077
 -1.00	0.0145	2.5076
 50.09	-0.0277	2.5074
 50.11	-0.0068	2.4809
 50.13	0.0215	2.4763
 50.15	0.0077	2.4799
 50.18	0.0339	2.4720
 50.20	0.0255	2.4848
 50.22	0.0273	2.4937
 50.24	0.0207	2.4848
 50.26	-0.0066	2.4840
 50.29	0.0001	2.4817
 50.31	-0.0053	2.4888
 50.33	-0.0058	2.4628
 50.35	-0.0374	2.4679
 50.37	-0.0231	2.4799
 50.40	0.0031	2.4771
 50.42	0.0273	2.4774
 50.44	-0.0132	2.4198
 50.46	-0.0099	2.4677
 50.48	-0.0056	2.4249
 50.50	-0.0068	2.4192
 50.53	-0.0010	2.4330
 50.55	-0.0040	2.4554
 50.57	-0.0078	2.4478
 50.59	0.0637	2.4481
 50.61	0.0179	2.4577
 50.64	0.0171	2.4863
 50.66	-0.0012	2.3945
 50.68	-0.0298	2.4062
 50.70	-0.0033	2.4720
 50.73	0.0095	2.3920
 50.75	-0.0242	2.4605
 50.77	0.0023	2.4639
 50.79	0.0276	2.4549
 50.81	0.0143	2.3907
 50.84	0.0146	2.4506
 50.86	-0.0033	2.4631
 50.88	0.0044	2.4723
 50.90	-0.0033	2.4320
 50.92	0.0128	2.4111
 50.95	0.0202	2.4317
 50.97	0.0039	2.4223
 50.99	-0.0132	2.4534
 51.01	0.0090	2.3678
 51.03	-0.0425	2.3790
 51.06	-0.0033	2.3848
 51.08	-0.0094	2.3841
 51.10	0.0207	2.4119
 51.12	0.0026	2.3894
 51.14	0.0095	2.4134
 51.17	0.0434	2.3797
 51.19	0.0874	2.4040
 51.21	0.0401	2.4152
 51.23	0.0701	2.4142
 51.25	0.0788	2.4205
 51.28	0.0953	2.4175
 51.30	0.0976	2.4185
 51.32	0.1137	2.4261
 51.34	0.1369	2.4200
 51.36	0.1697	2.4231
 51.39	0.1934	2.4243
 51.41	0.1967	2.4187
 51.43	0.2263	2.4205
 51.45	0.1904	2.4210
 51.47	0.2026	2.4215
 51.49	0.2281	2.4164
 51.52	0.2622	2.4226
 51.54	0.2765	2.4185
 51.56	0.2783	2.4172
 51.58	0.3759	2.4198
 51.60	0.3438	2.4228
 51.63	0.3764	2.4159
 51.65	0.4105	2.4223
 51.67	0.4199	2.4159
 51.69	0.4085	2.4228
 51.71	0.4304	2.4228
 51.73	0.4722	2.4213
 51.75	0.5272	2.4213
 51.78	0.5096	2.4215
 51.80	0.5346	2.4231
 51.82	0.5032	2.4210
 51.84	0.5315	2.4246
 51.86	0.5463	2.4190
 51.89	0.5904	2.4172
 51.91	0.5889	2.4218
 51.93	0.5797	2.4226
 51.95	0.6001	2.4144
 51.97	0.6548	2.4159
 52.00	0.6872	2.4198
 52.02	0.6925	2.4195
 52.04	0.7264	2.4205
 52.06	0.6513	2.4182
 52.08	0.7570	2.4177
 52.10	0.7639	2.4144
 52.13	0.8016	2.4236
 52.15	0.7886	2.4205
 52.17	0.8411	2.4175
 52.19	0.8362	2.4185
 52.21	0.8757	2.4200
 52.24	0.8875	2.4195
 52.26	0.9124	2.4256
 52.28	0.9155	2.4289
 52.30	0.9272	2.4185
 52.32	0.9560	2.4218
 52.34	0.9532	2.4243
 52.37	0.9789	2.4226
 52.39	1.0161	2.4259
 52.41	1.0031	2.4213
 52.43	1.0490	2.4200
 52.45	1.0457	2.4282
 52.48	1.0734	2.4221
 52.50	1.0469	2.4231
 52.52	1.1450	2.4180
 52.54	1.1180	2.4279
 52.56	1.1481	2.4221
 52.59	1.1723	2.4236
 52.61	1.1868	2.4208
 52.63	1.2105	2.4172
 52.65	1.2001	2.4223
 52.67	1.2671	2.4208
 52.70	1.2765	2.4154
 52.72	1.2752	2.4241
 52.74	1.3010	2.4226
 52.76	1.3127	2.4213
 52.78	1.3096	2.4208
 52.80	1.3833	2.4233
 52.83	1.4261	2.4279
 52.85	1.3690	2.4243
 52.87	1.4039	2.4223
 52.89	1.4278	2.4228
 52.91	1.4414	2.4282
 52.93	1.4439	2.4238
 52.96	1.4671	2.4261
 52.98	1.4773	2.4233
 53.00	1.4987	2.4246
 53.02	1.5216	2.4279
 53.04	1.5636	2.4254
 53.07	1.5891	2.4221
 53.09	1.5807	2.4249
 53.11	1.5840	2.4284
 53.13	1.6095	2.4282
 53.16	1.6526	2.4205
 53.18	1.6605	2.4282
 53.20	1.7094	2.4215
 53.22	1.7033	2.4233
 53.24	1.7267	2.4297
 53.27	1.7203	2.4249
 53.29	1.7797	2.4249
 53.31	1.7820	2.4345
 53.33	1.7670	2.4251
 53.35	1.8243	2.4333
 53.37	1.8172	2.4269
 53.40	1.8337	2.4264
 53.42	1.8752	2.4305
 53.44	1.9079	2.4236
 53.46	1.9104	2.4223
 53.48	1.9519	2.4279
 53.51	1.9300	2.4282
 53.53	1.9463	2.4277
 53.55	1.9698	2.4261
 53.57	2.0151	2.4287
 53.59	2.0238	2.4243
 53.62	2.0457	2.4256
 53.64	2.0781	2.4292
 53.66	2.0600	2.4294
 53.68	2.1007	2.4254
 53.70	2.0931	2.4254
 53.73	2.1300	2.4269
 53.75	2.1736	2.4264
 53.77	2.1372	2.4251
 53.79	2.1889	2.4269
 53.81	2.2126	2.4287
 53.84	2.2182	2.4279
 53.86	2.2490	2.4205
 53.88	2.3239	2.4338
 53.90	2.2798	2.4279
 53.92	2.3300	2.4315
 53.95	2.3932	2.4297
 53.97	2.3583	2.4256
 53.99	2.3476	2.4302
 54.01	2.3828	2.4264
 54.03	2.4465	2.4284
 54.05	2.4531	2.4294
 54.08	2.4411	2.4315
 54.10	2.4758	2.4312
 54.12	2.4888	2.4322
 54.14	2.4867	2.4322
 54.16	2.5634	2.4356
 54.19	2.5440	2.4330
 54.21	2.5718	2.4261
 54.23	2.6154	2.4312
 54.25	2.5746	2.4315
 54.27	2.6261	2.4302
 54.30	2.6376	2.4297
 54.32	2.6342	2.4300
 54.34	2.6732	2.4312
 54.36	2.6699	2.4272
 54.38	2.6956	2.4279
 54.41	2.6918	2.4282
 54.43	2.7351	2.4300
 54.45	2.7502	2.4264
 54.47	2.7601	2.4322
 54.49	2.7519	2.4297
 54.52	2.7739	2.4284
 54.54	2.8202	2.4363
 54.56	2.8452	2.4272
 54.58	2.9046	2.4305
 54.60	2.8880	2.4261
 54.63	2.9109	2.4289
 54.65	2.9086	2.4307
 54.67	2.9418	2.4259
 54.69	2.9527	2.4338
 54.71	3.0266	2.4287
 54.74	2.9522	2.4266
 54.76	2.9863	2.4256
 54.78	3.0503	2.4292
 54.80	3.0788	2.4243
 54.82	3.0934	2.4312
 54.85	3.0829	2.4317
 54.87	3.1165	2.4272
 54.89	3.1158	2.4320
 54.91	3.1614	2.4345
 54.93	3.1295	2.4243
 54.96	3.2065	2.4307
 54.98	3.1912	2.4307
 55.00	3.2373	2.4264
 55.02	3.2393	2.4274
 55.04	3.2414	2.4261
 55.06	3.2745	2.4297
 55.09	3.3262	2.4300
 55.11	3.3168	2.4297
 55.13	3.3509	2.4348
 55.15	3.3214	2.4297
 55.18	3.3708	2.4292
 55.20	3.3634	2.4289
 55.22	3.4246	2.4251
 55.24	3.4190	2.4312
 55.26	3.4579	2.4259
 55.29	3.4608	2.4246
 55.31	3.4857	2.4269
 55.33	3.5043	2.4287
 55.35	3.5349	2.4282
 55.37	3.5359	2.4279
 55.39	3.5550	2.4241
 55.42	3.5830	2.4277
 55.44	3.5884	2.4310
 55.46	3.5828	2.4266
 55.48	3.6521	2.4297
 55.50	3.6422	2.4509
 55.53	3.6880	2.5052
 55.55	3.6819	2.5074
 55.57	3.7145	2.5080
 55.59	3.7341	2.5069
 55.61	3.7418	2.5052
 55.63	3.7892	2.5069
 55.66	3.7680	2.5072
 55.68	3.7729	2.5069
 55.70	3.7647	2.5072
 55.72	3.8309	2.5064
 55.75	3.8715	2.5062
 55.77	3.8743	2.5072
 55.82	3.8842	2.5067
 55.84	3.8715	2.5069
 55.86	3.9079	2.5077
 55.88	3.9395	2.5041
 55.90	3.9390	2.5072
 55.93	3.9606	2.5087
 55.95	3.9283	2.5074
 55.97	3.9810	2.5082
 55.99	3.9703	2.5049
 56.01	3.9588	2.5085
 56.04	3.9622	2.5074
 56.06	4.0236	2.5064
 56.08	3.9894	2.5052
 56.10	3.9693	2.5072
 56.12	3.9754	2.5052
 56.14	3.9512	2.5054
 56.16	3.9471	2.5062
 56.19	4.0088	2.5057
 56.21	3.9670	2.5085
 56.23	4.0098	2.5090
 56.25	3.9876	2.5064
 56.27	3.9943	2.5057
 56.30	3.9667	2.5062
 56.32	3.9897	2.5072
 56.34	3.9991	2.5074
 56.36	3.9782	2.5069
 56.38	4.0266	2.5072
 56.40	3.9708	2.5069
 56.43	4.0177	2.5052
 56.45	3.9978	2.5072
 56.47	4.0182	2.5082
 56.49	4.0116	2.5069
 56.51	3.9741	2.5092
 56.54	3.9912	2.5059
 56.56	4.0174	2.5049
 56.58	3.9930	2.5077
 56.60	3.9690	2.5057
 56.62	4.0228	2.5059
 56.64	4.0032	2.5067
 56.67	4.0024	2.5059
 56.69	4.0157	2.5082
 56.71	4.0062	2.5059
 56.73	4.0118	2.5064
 56.75	3.9726	2.5074
 56.77	3.9667	2.5049
 56.79	3.9991	2.5067
 56.82	3.9915	2.5082
 56.84	3.9825	2.5072
 56.86	4.0124	2.5092
 56.88	4.0073	2.5041
 56.90	3.9698	2.5074
 56.92	4.0259	2.5067
 56.94	4.0327	2.5067
 56.97	3.9922	2.5064
 56.99	4.0213	2.5054
 57.01	4.0383	2.5072
 57.03	4.0177	2.5090
 57.05	3.9955	2.5062
 57.08	4.0192	2.5072
 57.10	4.0325	2.5067
 57.12	3.9785	2.5054
 57.16	3.9752	2.5080
 57.18	4.0343	2.5064
 57.21	3.9683	2.5082
 57.23	3.9678	2.5069
 57.25	3.9978	2.5067
 57.27	3.9813	2.5069
 57.29	4.0327	2.5064
 57.31	4.0014	2.5064
 57.34	4.0032	2.5069
 57.36	4.0001	2.5057
 57.38	3.9922	2.5072
 57.40	3.9976	2.5077
 57.42	3.9581	2.5077
 57.44	4.0200	2.5080
 57.46	3.9879	2.5059
 57.48	3.9948	2.5077
 57.51	4.0057	2.5069
 57.53	3.9971	2.5072
 57.55	4.0108	2.5067
 57.57	3.9443	2.5052
 57.59	4.0103	2.5064
 57.61	4.0116	2.5057
 57.63	3.9976	2.5072
 57.66	3.9976	2.5080
 57.68	3.9902	2.5085
 57.70	4.0011	2.5049
 57.72	3.9920	2.5059
 57.74	4.0373	2.5059
 57.77	4.0146	2.5072
 57.79	3.9966	2.5049
 57.81	3.9950	2.5067
 57.83	4.0355	2.5074
 57.85	4.0039	2.5059
 57.87	4.0223	2.5059
 57.90	4.0144	2.5080
 57.92	3.9767	2.5049
 57.94	3.9861	2.5069
 57.96	4.0159	2.5046
 57.98	4.0113	2.5067
 58.01	4.0073	2.5080
 58.03	4.0320	2.5059
 58.05	4.0233	2.5082
 58.07	3.9996	2.5072
 58.09	4.0210	2.5077
 58.11	4.0261	2.5080
 58.13	4.0004	2.5082
 58.16	3.9734	2.5067
 58.18	3.9797	2.5072
 58.20	3.9968	2.5092
 58.22	3.9823	2.5082
 58.24	3.9925	2.5059
 58.27	3.9695	2.5052
 58.29	3.9912	2.5069
 58.31	3.9734	2.5062
 58.33	4.0169	2.5080
 58.35	3.9994	2.5067
 58.37	4.0371	2.5067
 58.39	3.9966	2.5082
 58.42	3.9897	2.5057
 58.44	4.0297	2.5064
 58.46	4.0253	2.5069
 58.48	3.9945	2.5059
 58.50	4.0022	2.5052
 58.52	3.9606	2.5082
 58.55	4.0011	2.5072
 58.57	4.0251	2.5080
 58.59	4.0073	2.5080
 58.61	3.9716	2.5064
 58.63	4.0246	2.5062
 58.65	3.9958	2.5080
 58.68	3.9912	2.5080
 58.70	3.9925	2.5077
 58.72	3.9912	2.5077
 58.74	3.9859	2.5059
 58.76	4.0271	2.5072
 58.78	3.9991	2.5074
 58.81	4.0233	2.5080
 58.83	3.9790	2.5085
 58.85	3.9904	2.5074
 58.87	3.9800	2.5069
 58.89	4.0243	2.5069
 58.91	3.9902	2.5062
 58.94	4.0223	2.5077
 58.96	4.0034	2.5059
 58.98	4.0220	2.5080
 59.00	3.9894	2.5074
 59.02	3.9884	2.5046
 59.04	4.0050	2.5069
 59.07	3.9907	2.5064
 59.09	3.9729	2.5057
 59.11	4.0208	2.5077
 59.13	4.0251	2.5069
 59.15	3.9912	2.5080
 59.17	3.9622	2.5069
 59.19	4.0169	2.5064
 59.22	4.0131	2.5074
 59.24	3.9627	2.5067
 59.26	3.9780	2.5074
 59.28	3.9655	2.5067
 59.30	3.9917	2.5077
 59.33	4.0108	2.5082
 59.35	4.0027	2.5069
 59.37	4.0177	2.5069
 59.39	4.0225	2.5041
 59.41	4.0391	2.5052
 59.43	3.9953	2.5067
 59.46	3.9538	2.5074
 59.48	3.9876	2.5069
 59.50	3.9983	2.5064
 59.52	4.0011	2.5072
 59.54	3.9935	2.5062
 59.57	4.0057	2.5074
 59.59	4.0210	2.5067
 59.61	4.0111	2.5067
 59.63	3.9614	2.5077
 59.65	4.0019	2.5074
 59.68	3.9889	2.5077
 59.70	3.9935	2.5085
 59.72	4.0304	2.5074
 59.74	4.0047	2.5072
 59.76	4.0174	2.5074
 59.79	3.9960	2.5087
 59.81	4.0243	2.5067
 59.83	4.0024	2.5062
 59.85	3.9971	2.5057
 59.88	4.0065	2.5064
 59.90	4.0307	2.5064
 59.92	4.0256	2.5069
 59.94	4.0136	2.5069
 59.97	4.0223	2.5062
 59.99	4.0320	2.5067
 60.01	4.0146	2.5067
 60.03	4.0149	2.5059
 60.05	4.0113	2.5062
 60.08	3.9940	2.5080
 60.10	4.0164	2.5067
 60.12	4.0032	2.5074
 60.14	4.0368	2.5064
 60.16	4.0279	2.5059
 60.18	3.9897	2.5082
 60.21	3.9795	2.5067
 60.23	4.0452	2.5064
 60.25	4.0045	2.5059
 60.27	3.9963	2.5074
 60.29	4.0075	2.5057
 60.32	4.0004	2.5064
 60.34	3.9955	2.5064
 60.36	4.0080	2.5077
 60.38	4.0034	2.5062
 60.40	3.9736	2.5082
 60.42	4.0218	2.5059
 60.45	3.9940	2.5097
 60.47	4.0098	2.5072
 60.49	4.0353	2.5059