Time [s]	Voltage power source [V]	Voltage current sensor [V]
-1.00	0.0133	2.5075
 -1.00	0.0159	2.5076
 -1.00	0.0139	2.5077
 -1.00	0.0124	2.5077
 -1.00	0.0150	2.5077
 -1.00	0.0177	2.5076
 -1.00	0.0164	2.5077
 -1.00	0.0131	2.5076
 70.25	-0.0059	2.5085
 70.28	0.0369	2.4784
 70.30	-0.0031	2.4781
 70.32	-0.0077	2.4590
 70.34	-0.0493	2.4947
 70.36	0.0371	2.4835
 70.39	0.0022	2.4965
 70.41	-0.0037	2.4848
 70.43	0.0040	2.4914
 70.45	0.0050	2.4593
 70.47	0.0035	2.4807
 70.50	-0.0042	2.4753
 70.52	0.0032	2.4891
 70.54	-0.0006	2.4437
 70.56	-0.0518	2.4774
 70.58	-0.0294	2.4521
 70.61	-0.0082	2.4231
 70.63	-0.0093	2.4631
 70.65	-0.0024	2.4312
 70.67	-0.0100	2.4509
 70.69	0.0198	2.4149
 70.71	-0.0095	2.4305
 70.74	0.0088	2.4312
 70.76	0.0491	2.4697
 70.78	-0.0144	2.4055
 70.80	-0.0136	2.4106
 70.82	-0.0029	2.4919
 70.85	0.0022	2.4868
 70.87	0.0206	2.3910
 70.89	-0.0189	2.4022
 70.91	0.0175	2.4735
 70.93	0.0356	2.4646
 70.96	-0.0261	2.4083
 70.98	0.0384	2.4542
 71.00	-0.0541	2.3989
 71.02	-0.0077	2.3958
 71.04	0.0177	2.4712
 71.07	0.0149	2.4677
 71.09	0.0134	2.4305
 71.11	-0.0184	2.4417
 71.13	0.0162	2.4284
 71.15	0.0149	2.4108
 71.17	0.0007	2.4491
 71.20	0.0218	2.4126
 71.22	-0.0123	2.3785
 71.24	0.0093	2.4452
 71.26	-0.0365	2.4272
 71.28	0.0361	2.3978
 71.31	0.0381	2.4006
 71.33	0.0284	2.3780
 71.35	0.0565	2.4080
 71.37	0.0853	2.4205
 71.39	0.0346	2.4264
 71.41	0.1034	2.4312
 71.44	0.0929	2.4300
 71.46	0.1072	2.4338
 71.48	0.0947	2.4277
 71.50	0.1319	2.4274
 71.52	0.1772	2.4330
 71.54	0.1961	2.4279
 71.56	0.1795	2.4249
 71.59	0.2285	2.4274
 71.61	0.2392	2.4279
 71.63	0.2119	2.4274
 71.65	0.2692	2.4272
 71.67	0.2781	2.4266
 71.69	0.2952	2.4223
 71.72	0.2972	2.4272
 71.74	0.3383	2.4282
 71.76	0.3464	2.4249
 71.78	0.3627	2.4282
 71.81	0.4114	2.4256
 71.83	0.4101	2.4279
 71.85	0.4257	2.4251
 71.87	0.4407	2.4317
 71.89	0.4313	2.4233
 71.92	0.4702	2.4243
 71.94	0.4929	2.4241
 71.96	0.5332	2.4213
 71.98	0.5311	2.4215
 72.00	0.5826	2.4218
 72.03	0.5100	2.4249
 72.05	0.5885	2.4231
 72.07	0.6065	2.4226
 72.09	0.6458	2.4238
 72.11	0.6458	2.4282
 72.13	0.6657	2.4249
 72.16	0.6922	2.4198
 72.18	0.6644	2.4205
 72.20	0.7337	2.4264
 72.22	0.7209	2.4259
 72.24	0.7449	2.4215
 72.26	0.7966	2.4272
 72.29	0.8193	2.4226
 72.31	0.8514	2.4198
 72.33	0.8254	2.4241
 72.35	0.8636	2.4210
 72.37	0.8445	2.4192
 72.39	0.8891	2.4259
 72.42	0.8916	2.4208
 72.44	0.9263	2.4259
 72.46	0.9352	2.4256
 72.48	0.9467	2.4233
 72.50	0.9895	2.4221
 72.52	0.9938	2.4218
 72.54	1.0216	2.4203
 72.56	1.0491	2.4223
 72.59	1.0832	2.4256
 72.61	1.0537	2.4282
 72.63	1.1266	2.4249
 72.65	1.0950	2.4249
 72.67	1.1253	2.4218
 72.70	1.1347	2.4172
 72.72	1.1467	2.4215
 72.74	1.1897	2.4264
 72.76	1.2173	2.4236
 72.78	1.2173	2.4251
 72.80	1.2387	2.4254
 72.83	1.2461	2.4261
 72.85	1.2911	2.4292
 72.87	1.2840	2.4261
 72.89	1.3057	2.4294
 72.92	1.3294	2.4185
 72.94	1.3362	2.4213
 72.96	1.3620	2.4210
 72.98	1.4007	2.4233
 73.00	1.4111	2.4218
 73.03	1.4310	2.4254
 73.05	1.4427	2.4284
 73.07	1.4376	2.4274
 73.09	1.4965	2.4266
 73.11	1.4797	2.4282
 73.14	1.5791	2.4261
 73.16	1.5477	2.4264
 73.18	1.5627	2.4208
 73.20	1.5752	2.4284
 73.22	1.6229	2.4277
 73.25	1.6216	2.4274
 73.27	1.6573	2.4289
 73.29	1.6782	2.4249
 73.31	1.6861	2.4264
 73.34	1.6878	2.4282
 73.36	1.7215	2.4300
 73.38	1.7449	2.4259
 73.40	1.7070	2.4256
 73.42	1.7666	2.4277
 73.44	1.8180	2.4305
 73.47	1.7941	2.4249
 73.49	1.8152	2.4269
 73.51	1.8089	2.4325
 73.53	1.8598	2.4274
 73.55	1.8942	2.4292
 73.58	1.8850	2.4274
 73.60	1.8802	2.4274
 73.62	1.9149	2.4315
 73.64	1.9426	2.4243
 73.66	1.9653	2.4294
 73.69	1.9788	2.4317
 73.71	2.0244	2.4294
 73.73	2.0275	2.4312
 73.75	2.0415	2.4333
 73.77	2.0769	2.4277
 73.80	2.0596	2.4274
 73.82	2.0983	2.4266
 73.84	2.1121	2.4292
 73.86	2.1350	2.4274
 73.88	2.1531	2.4322
 73.91	2.1673	2.4322
 73.93	2.1928	2.4330
 73.95	2.1977	2.4317
 73.97	2.2838	2.4272
 73.99	2.2486	2.4302
 74.01	2.2601	2.4317
 74.04	2.3110	2.4312
 74.06	2.3067	2.4289
 74.08	2.3245	2.4274
 74.10	2.3752	2.4300
 74.12	2.3900	2.4340
 74.14	2.3895	2.4284
 74.17	2.3903	2.4302
 74.19	2.4094	2.4366
 74.21	2.4438	2.4353
 74.23	2.4563	2.4300
 74.25	2.4756	2.4297
 74.28	2.5187	2.4317
 74.30	2.5429	2.4322
 74.32	2.5294	2.4277
 74.34	2.5449	2.4292
 74.36	2.5837	2.4317
 74.39	2.5908	2.4277
 74.41	2.6395	2.4317
 74.43	2.6023	2.4351
 74.45	2.6476	2.4310
 74.47	2.6344	2.4305
 74.49	2.7551	2.4284
 74.51	2.7088	2.4371
 74.54	2.7118	2.4310
 74.56	2.7429	2.4279
 74.58	2.7505	2.4274
 74.60	2.7844	2.4335
 74.62	2.7681	2.4325
 74.64	2.8361	2.4379
 74.67	2.8318	2.4274
 74.69	2.8553	2.4305
 74.71	2.8884	2.4320
 74.73	2.9322	2.4282
 74.75	2.8858	2.4274
 74.77	2.9363	2.4289
 74.80	2.9383	2.4338
 74.82	2.9589	2.4305
 74.84	2.9834	2.4259
 74.86	3.0010	2.4261
 74.88	3.0535	2.4386
 74.91	3.0746	2.4294
 74.93	3.0211	2.4315
 74.95	3.0751	2.4358
 74.97	3.1105	2.4361
 74.99	3.0614	2.4353
 75.02	3.0733	2.4335
 75.04	3.0963	2.4310
 75.06	3.1200	2.4328
 75.08	3.1890	2.4292
 75.10	3.1697	2.4330
 75.13	3.2018	2.4272
 75.15	3.2178	2.4284
 75.17	3.2486	2.4386
 75.19	3.2705	2.4264
 75.21	3.3307	2.4307
 75.24	3.3304	2.4305
 75.26	3.3475	2.4322
 75.28	3.3511	2.4272
 75.30	3.4015	2.4289
 75.32	3.3900	2.4300
 75.35	3.4170	2.4315
 75.37	3.4336	2.4312
 75.39	3.4512	2.4284
 75.41	3.4535	2.4292
 75.43	3.5169	2.4305
 75.46	3.5151	2.4310
 75.48	3.5289	2.4312
 75.50	3.5658	2.4338
 75.52	3.5574	2.4307
 75.54	3.5870	2.4330
 75.57	3.6193	2.4330
 75.59	3.6604	2.4312
 75.61	3.6904	2.4307
 75.63	3.6851	2.4335
 75.65	3.6892	2.4292
 75.68	3.7070	2.4277
 75.70	3.7131	2.4277
 75.72	3.7748	2.4279
 75.74	3.7577	2.4251
 75.76	3.8275	2.4353
 75.78	3.8530	2.4305
 75.80	3.8293	2.4282
 75.83	3.8344	2.4289
 75.85	3.8988	2.4294
 75.87	3.8869	2.4307
 75.89	3.9009	2.4269
 75.91	3.9358	2.4302
 75.94	3.9480	2.4302
 75.96	3.9816	2.4233
 75.98	3.9658	2.4269
 76.00	3.9931	2.4233
 76.02	3.9857	2.4322
 76.04	4.0805	2.4297
 76.07	4.0397	2.4277
 76.09	4.0734	2.4272
 76.11	4.0808	2.4279
 76.13	4.1050	2.4269
 76.15	4.1164	2.4251
 76.17	4.1085	2.4264
 76.19	4.2125	2.4241
 76.22	4.1885	2.4292
 76.24	4.1903	2.4300
 76.26	4.2053	2.4228
 76.28	4.2234	2.4223
 76.30	4.2655	2.4254
 76.33	4.3320	2.4279
 76.35	4.2833	2.4221
 76.37	4.2894	2.4249
 76.39	4.3371	2.4272
 76.41	4.3450	2.4266
 76.43	4.3901	2.4231
 76.46	4.3824	2.4287
 76.48	4.4191	2.4264
 76.50	4.4321	2.4266
 76.52	4.4183	2.4221
 76.54	4.4706	2.4256
 76.56	4.4497	2.4233
 76.59	4.4362	2.4297
 76.61	4.5266	2.4228
 76.63	4.5376	2.4182
 76.65	4.5557	2.4277
 76.67	4.5753	2.4208
 76.70	4.5878	2.4213
 76.72	4.6456	2.4233
 76.74	4.6288	2.4213
 76.76	4.6288	2.4305
 76.78	4.6930	2.4203
 76.81	4.6874	2.4149
 76.83	4.7080	2.4200
 76.85	4.7172	2.4223
 76.87	4.7631	2.4254
 76.89	4.7727	2.4218
 76.91	4.7595	2.4236
 76.94	4.8637	2.4182
 76.96	4.8140	2.4172
 76.98	4.8293	2.4261
 77.00	4.8634	2.4198
 77.02	4.8769	2.4218
 77.05	4.8933	2.4198
 77.07	4.8703	2.4208
 77.09	4.9391	2.4210
 77.11	4.9837	2.4210
 77.13	5.0000	2.4192
 77.15	4.9455	2.4200
 77.17	5.0051	2.4175
 77.20	4.9992	2.4195
 77.22	5.0234	2.4261
 77.24	5.0367	2.4175
 77.26	5.0902	2.4192
 77.28	5.0899	2.4149
 77.30	5.1083	2.4243
 77.33	5.1404	2.4182
 77.35	5.1656	2.4149
 77.37	5.1654	2.4167
 77.39	5.1817	2.4254
 77.41	5.2117	2.4226
 77.44	5.2074	2.4126
 77.46	5.2431	2.4131
 77.48	5.2711	2.4182
 77.50	5.2815	2.4180
 77.52	5.2820	2.4210
 77.54	5.2790	2.4139
 77.57	5.3549	2.4101
 77.59	5.3292	2.4129
 77.61	5.3485	2.4121
 77.63	5.3857	2.4131
 77.65	5.4443	2.4142
 77.68	5.4418	2.4139
 77.70	5.4573	2.4121
 77.72	5.4742	2.4152
 77.74	5.5129	2.4162
 77.76	5.5376	2.4149
 77.79	5.5116	2.4126
 77.81	5.5131	2.4116
 77.83	5.5562	2.4101
 77.85	5.5878	2.4185
 77.87	5.5656	2.4187
 77.90	5.6033	2.4116
 77.92	5.6446	2.4050
 77.94	5.5995	2.4116
 77.96	5.6645	2.4119
 77.98	5.7029	2.4047
 78.00	5.7159	2.4091
 78.03	5.7259	2.4098
 78.05	5.7534	2.4103
 78.07	5.7440	2.4116
 78.09	5.7554	2.4057
 78.11	5.8326	2.4052
 78.14	5.7789	2.4042
 78.16	5.8418	2.4129
 78.18	5.8930	2.4085
 78.20	5.9165	2.4062
 78.22	5.9208	2.4045
 78.24	5.9111	2.4052
 78.27	5.9266	2.4080
 78.29	5.9419	2.4062
 78.31	5.9351	2.4029
 78.33	6.0072	2.4116
 78.35	6.0263	2.4050
 78.37	6.0326	2.4073
 78.40	6.0556	2.4103
 78.42	6.0528	2.4024
 78.44	6.0734	2.4055
 78.46	6.1284	2.4050
 78.48	6.1098	2.4037
 78.50	6.1284	2.4045
 78.53	6.1381	2.4078
 78.55	6.1626	2.4019
 78.57	6.1738	2.4057
 78.59	6.2232	2.3978
 78.61	6.2242	2.3991
 78.63	6.2263	2.3973
 78.65	6.2734	2.4006
 78.68	6.2785	2.4029
 78.70	6.3007	2.3940
 78.72	6.3241	2.3994
 78.74	6.3121	2.4029
 78.76	6.3674	2.4014
 78.79	6.3424	2.4014
 78.81	6.4082	2.3971
 78.83	6.3845	2.3996
 78.85	6.4227	2.3978
 78.87	6.4459	2.3940
 78.89	6.4650	2.3932
 78.92	6.5060	2.3966
 78.94	6.4930	2.3917
 78.96	6.5312	2.3915
 78.98	6.5083	2.4004
 79.01	6.5743	2.3940
 79.03	6.5855	2.3912
 79.05	6.5993	2.3882
 79.07	6.5995	2.3948
 79.09	6.6107	2.3930
 79.11	6.6497	2.3820
 79.14	6.6772	2.3825
 79.16	6.7019	2.3943
 79.18	6.7078	2.3927
 79.20	6.6790	2.3846
 79.22	6.7498	2.3808
 79.24	6.7664	2.3879
 79.27	6.7690	2.3902
 79.29	6.8199	2.3861
 79.31	6.8151	2.3876
 79.33	6.8232	2.3787
 79.35	6.8474	2.3892
 79.37	6.8416	2.3882
 79.40	6.8948	2.3940
 79.42	6.9002	2.3907
 79.44	6.9126	2.3892
 79.46	6.9320	2.3810
 79.48	6.9651	2.3915
 79.50	6.9679	2.3833
 79.53	6.9802	2.3813
 79.55	7.0095	2.3904
 79.57	7.0383	2.3927
 79.59	7.0482	2.3869
 79.61	7.0716	2.3833
 79.63	7.0627	2.3810
 79.66	7.1203	2.3780
 79.68	7.1127	2.3836
 79.70	7.1417	2.3767
 79.72	7.1208	2.3800
 79.74	7.1608	2.3782
 79.76	7.1835	2.3825
 79.79	7.2036	2.3774
 79.81	7.2469	2.3774
 79.83	7.2265	2.3757
 79.85	7.2724	2.3744
 79.87	7.2574	2.3759
 79.90	7.3053	2.3726
 79.92	7.3188	2.3759
 79.94	7.3409	2.3708
 79.96	7.3463	2.3662
 79.98	7.3583	2.3703
 80.00	7.3950	2.3713
 80.03	7.3937	2.3752
 80.05	7.4046	2.3774
 80.07	7.4648	2.3780
 80.09	7.4586	2.3736
 80.11	7.4722	2.3734
 80.13	7.4841	2.3667
 80.16	7.5167	2.3678
 80.18	7.5058	2.3769
 80.20	7.5356	2.3693
 80.22	7.5412	2.4088
 80.24	7.5850	2.5074
 80.26	7.5631	2.5059
 80.29	7.6031	2.5074
 80.31	7.5970	2.5077
 80.33	7.5952	2.5052
 80.35	7.6694	2.5074
 80.37	7.6793	2.5080
 80.40	7.7109	2.5062
 80.42	7.7037	2.5067
 80.44	7.7817	2.5064
 80.46	7.7218	2.5067
 80.48	7.7463	2.5077
 80.51	7.7476	2.5067
 80.53	7.7539	2.5077
 80.55	7.7590	2.5074
 80.57	7.7680	2.5077
 80.59	7.7738	2.5067
 80.61	7.7557	2.5041
 80.64	7.7797	2.5074
 80.66	7.7483	2.5072
 80.68	7.8673	2.5067
 80.70	7.7906	2.5074
 80.72	7.7957	2.5059
 80.75	7.7848	2.5054
 80.77	7.8001	2.5059
 80.79	7.7990	2.5072
 80.81	7.7781	2.5054
 80.83	7.7787	2.5054
 80.86	7.7804	2.5080
 80.88	7.8064	2.5057
 80.90	7.8013	2.5062
 80.92	7.8092	2.5082
 80.94	7.7715	2.5059
 80.96	7.8625	2.5062
 80.99	7.8123	2.5082
 81.01	7.8151	2.5062
 81.03	7.8128	2.5077
 81.05	7.8617	2.5067
 81.07	7.8110	2.5080
 81.09	7.8202	2.5080
 81.12	7.8128	2.5074
 81.14	7.7995	2.5074
 81.16	7.8401	2.5077
 81.18	7.8266	2.5059
 81.20	7.8108	2.5062
 81.22	7.8153	2.5052
 81.25	7.8423	2.5085
 81.27	7.8821	2.5067
 81.29	7.8367	2.5074
 81.31	7.8370	2.5069
 81.33	7.8169	2.5067
 81.35	7.8166	2.5074
 81.37	7.8161	2.5049
 81.40	7.8120	2.5069
 81.42	7.8332	2.5054
 81.44	7.8225	2.5069
 81.46	7.8176	2.5077
 81.48	7.7952	2.5049
 81.50	7.8161	2.5064
 81.53	7.8408	2.5059
 81.55	7.8148	2.5062
 81.57	7.8184	2.5069
 81.59	7.8316	2.5082
 81.61	7.8171	2.5062
 81.63	7.8169	2.5082
 81.66	7.8197	2.5095
 81.68	7.8161	2.5074
 81.70	7.8181	2.5080
 81.72	7.8660	2.5072
 81.74	7.8156	2.5059
 81.77	7.8225	2.5057
 81.79	7.8156	2.5080
 81.81	7.8156	2.5062
 81.83	7.8169	2.5067
 81.85	7.8444	2.5085
 81.88	7.8467	2.5080
 81.90	7.8176	2.5069
 81.92	7.8204	2.5059
 81.94	7.8232	2.5087
 81.96	7.8609	2.5054
 81.98	7.8449	2.5069
 82.01	7.8148	2.5067
 82.03	7.8159	2.5059
 82.05	7.8171	2.5062
 82.07	7.7723	2.5059
 82.09	7.8709	2.5077
 82.12	7.8671	2.5069
 82.14	7.8220	2.5077
 82.16	7.8179	2.5077
 82.18	7.8248	2.5072
 82.20	7.8176	2.5062
 82.23	7.8194	2.5067
 82.25	7.8204	2.5069
 82.27	7.8151	2.5072
 82.29	7.8184	2.5069
 82.31	7.8304	2.5077
 82.33	7.8171	2.5085
 82.35	7.8189	2.5057
 82.37	7.7914	2.5054
 82.40	7.8179	2.5080
 82.42	7.8209	2.5067
 82.44	7.8209	2.5062
 82.46	7.8171	2.5057
 82.48	7.8877	2.5067
 82.50	7.7942	2.5074
 82.53	7.8171	2.5074
 82.55	7.8171	2.5090
 82.57	7.8169	2.5054
 82.59	7.8151	2.5059
 82.61	7.8775	2.5074
 82.64	7.8179	2.5064
 82.66	7.8350	2.5074
 82.68	7.8164	2.5077
 82.70	7.8164	2.5054
 82.72	7.8138	2.5069
 82.74	7.7990	2.5082
 82.77	7.8189	2.5077
 82.79	7.8528	2.5072
 82.81	7.8288	2.5062
 82.83	7.8681	2.5059
 82.85	7.8136	2.5077
 82.88	7.8485	2.5085
 82.90	7.8632	2.5072
 82.92	7.8187	2.5069
 82.94	7.8240	2.5069
 82.97	7.8204	2.5077
 82.99	7.8187	2.5046
 83.01	7.8199	2.5085
 83.03	7.8373	2.5057
 83.05	7.8044	2.5057
 83.07	7.8194	2.5069
 83.10	7.8187	2.5080
 83.12	7.8362	2.5077
 83.14	7.8459	2.5054
 83.16	7.8159	2.5062
 83.18	7.8105	2.5069
 83.21	7.8171	2.5090
 83.23	7.8176	2.5052
 83.25	7.8174	2.5090
 83.27	7.8411	2.5077
 83.29	7.8176	2.5059
 83.32	7.8176	2.5074
 83.34	7.8184	2.5087
 83.36	7.8179	2.5067
 83.38	7.8301	2.5074
 83.40	7.8059	2.5087
 83.42	7.7866	2.5069
 83.44	7.8192	2.5062
 83.47	7.8161	2.5077
 83.49	7.8207	2.5077
 83.51	7.8197	2.5074
 83.53	7.8452	2.5057
 83.55	7.8174	2.5074
 83.58	7.8194	2.5067
 83.60	7.8184	2.5067
 83.62	7.8181	2.5072
 83.64	7.8064	2.5077
 83.66	7.7886	2.5069
 83.68	7.8301	2.5077
 83.70	7.8176	2.5067
 83.73	7.8169	2.5074
 83.75	7.8355	2.5072
 83.77	7.8189	2.5067
 83.79	7.7623	2.5090
 83.81	7.8217	2.5062
 83.84	7.8207	2.5087
 83.86	7.8039	2.5069
 83.88	7.8296	2.5067
 83.90	7.8795	2.5077
 83.92	7.8176	2.5082
 83.95	7.8125	2.5072
 83.97	7.8199	2.5062
 83.99	7.8184	2.5064
 84.01	7.8260	2.5097
 84.03	7.8192	2.5072
 84.06	7.8171	2.5062
 84.08	7.9099	2.5044
 84.10	7.8176	2.5069
 84.12	7.8192	2.5062
 84.14	7.8202	2.5067
 84.17	7.8194	2.5085
 84.19	7.8187	2.5057
 84.21	7.8454	2.5074
 84.23	7.8207	2.5067
 84.25	7.8171	2.5057
 84.27	7.8171	2.5085
 84.29	7.8184	2.5067
 84.32	7.8204	2.5097
 84.34	7.8230	2.5067
 84.36	7.8153	2.5080
 84.38	7.8192	2.5052
 84.40	7.8169	2.5082
 84.43	7.8184	2.5064
 84.45	7.8199	2.5062
 84.47	7.7848	2.5072
 84.49	7.8166	2.5074
 84.51	7.8161	2.5057
 84.54	7.8181	2.5085
 84.56	7.8678	2.5064
 84.58	7.8146	2.5069
 84.60	7.8141	2.5074
 84.62	7.8258	2.5077
 84.65	7.8204	2.5052
 84.67	7.8164	2.5085
 84.69	7.8187	2.5069
 84.71	7.8192	2.5074
 84.73	7.8130	2.5077
 84.76	7.8187	2.5064
 84.78	7.8189	2.5064
 84.80	7.8286	2.5059
 84.82	7.7687	2.5087
 84.84	7.8192	2.5059
 84.87	7.8181	2.5082
 84.89	7.7973	2.5077
 84.91	7.8184	2.5064
 84.93	7.8044	2.5049
 84.95	7.8189	2.5069
 84.97	7.7748	2.5062
 85.00	7.8232	2.5069
 85.02	7.8197	2.5082
 85.04	7.7873	2.5052
 85.06	7.8176	2.5072
 85.08	7.8179	2.5069
 85.10	7.8199	2.5064
 85.13	7.8169	2.5085
 85.15	7.7468	2.5069
 85.17	7.8064	2.5054
 85.19	7.8235	2.5049
 85.21	7.7993	2.5064
 85.23	7.9150	2.5085
 85.26	7.8678	2.5085
 85.28	7.8087	2.5074
 85.30	7.8130	2.5097
 85.32	7.8179	2.5077
 85.34	7.8169	2.5064
 85.36	7.8184	2.5085
 85.39	7.8189	2.5057
 85.41	7.7988	2.5074